time,flux,
0.01,4886.739720720019
0.02,9285.692856763073
0.03,14737.43078198573
0.04,21108.53858821041
0.05,28635.97013428683
0.06,38059.92349915045
0.07000000000000001,47451.13937300593
0.08,58350.81545413998
0.09,71504.79952677718
0.09999999999999999,87198.95509191389
0.11,103474.1915389282
0.12,123617.8724981423
0.13,141688.0410075252
0.14,163054.8813146117
0.15,190804.4144602797
0.16,218095.5624000164
0.17,246601.5622242264
0.18,285620.8953961108
0.19,320793.3250934535
0.2,361196.390976427
0.21,384147.9390435957
0.22,439358.3687331923
0.23,494863.4682910024
0.24,528637.2269763235
0.25,568747.0564369221
0.26,602007.023153475
0.27,640282.0813266672
0.28,686012.1464094716
0.29,754481.4242745086
0.3,812176.107607323
0.31,840957.5893033464
0.32,851308.1430590209
0.33,857428.0240996298
0.34,852612.5496880066
0.35,849165.4391488939
0.36,846871.2511637886
0.37,846011.6910528763
0.38,845798.1257849046
0.39,846452.9971392606
0.4,848385.1046848245
0.41,850645.2597175125
0.42,852399.9366844405
0.43,854401.3424674977
0.44,856868.4408578349
0.45,859026.5915026625
0.46,861537.1123882848
0.47,863867.4785018797
0.48,866375.0531737405
0.49,869113.7291081821
0.5,871815.8468191922
0.51,874431.9371171911
0.52,877130.8035413544
0.53,879692.1715024798
0.54,882203.3678567555
0.55,884845.30467952
0.5600000000000001,887476.3156622829
0.5700000000000001,890002.0807080058
0.5800000000000001,892418.8386693867
0.59,894823.017981397
0.6,897205.7967034114
0.61,899559.3056326204
0.62,901960.6112431985
0.63,903907.904681972
0.64,906420.2239000144
0.65,908392.1822692518
0.66,910638.0408181208
0.67,912912.0871360522
0.68,914954.4651600652
0.6900000000000001,916988.5437698402
0.7,919009.3813010975
0.71,920946.1735348032
0.72,922777.6012072499
0.73,924714.1750805278
0.74,926567.5327195737
0.75,928228.5691056879
0.76,930039.4374520314
0.77,931716.447510318
0.78,933255.0530014487
0.79,934840.9410301017
0.7999999999999999,936419.1455752045
0.8099999999999999,938016.1054063396
0.82,939445.9788689559
0.83,940866.7064237167
0.84,942233.7041424287
0.85,943697.6355199367
0.86,945179.4298550158
0.87,946490.5678438281
0.88,947793.0826986289
0.89,949255.4049192811
0.9,950530.6177785748
0.9099999999999999,950561.4777964405
0.9199999999999999,952914.3690925358
0.9299999999999999,954053.7461281529
0.9399999999999999,955062.763653882
0.95,956123.4379037116
0.9600000000000001,957128.8494936131
0.9700000000000001,958134.3276443325
0.98,959320.7214199665
0.9900000000000001,960303.478198342
1,961114.6980587651
1.01,962134.2158163715
1.02,963061.0467264132
1.03,963952.1574202945
1.04,964776.689474231
1.05,965775.3793277481
1.06,966575.5250019702
1.07,967389.6929622644
1.08,968099.3980298445
1.09,968895.1019271468
1.1,969609.749369556
1.11,970386.8878770708
1.12,971047.6339541035
1.13,971744.9870164661
1.14,972575.957298037
1.15,973203.0324736667
1.16,973934.0916130401
1.17,974586.4410601833
1.18,975217.4880214687
1.19,975793.7038083459
1.2,976414.053801477
1.21,977295.7155738283
1.22,977919.3100498588
1.23,978454.8612540615
1.24,978949.0665698149
1.25,979402.4163698382
1.26,979738.9908620787
1.27,980900.3885865789
1.28,981362.4177744064
1.29,981899.9081515839
1.3,982251.5026560711
1.31,982616.6431078422
1.32,983037.6288352151
1.33,983451.2933337282
1.34,983850.4264030508
1.35,984237.6430204291
1.36,984592.937074398
1.37,984971.0596027748
1.38,985282.4411298496
1.39,985611.8532044102
1.4,985939.089935355
1.41,986293.8928844096
1.42,986673.5124501404
1.43,986955.8636269114
1.44,987303.4274816344
1.45,987596.4433648551
1.46,987841.9509922388
1.47,988160.6208852392
1.48,988347.8989487984
1.49,988737.0929278719
1.5,988987.641567752
1.51,989260.1448648897
1.52,989542.7081934493
1.53,989764.8275923738
1.54,990099.6038270169
1.55,990407.4407348912
1.56,990639.67664291
1.57,990800.9379693227
1.58,990961.6293521314
1.59,991190.7223854682
1.6,991499.6815468033
1.61,991736.3946471334
1.62,991931.1275397522
1.63,992129.4633219959
1.64,992337.5995591178
1.65,992477.2624689636
1.66,992742.0386393976
1.67,992916.7325768149
1.68,993136.4284418125
1.69,993341.8968480349
1.7,993534.1665530787
1.71,993709.6274912987
1.72,993850.7233759372
1.73,993991.3026005978
1.74,994129.0895252324
1.75,994285.2614739009
1.76,994407.1876058073
1.77,994556.1678034713
1.78,994696.1417841404
1.79,994817.8393995402
1.8,994893.5944674837
1.81,995066.4715300811
1.82,995217.9937862606
1.83,995408.1995540451
1.84,995514.2269507558
1.85,995611.1457185461
1.86,995602.6810996352
1.87,995768.8052032482
1.88,995904.8600094286
1.89,996014.9294051894
1.9,996080.5318341063
1.91,996137.9763287043
1.92,996198.8809199414
1.93,996254.8999107458
1.94,995339.5040166187
1.95,996652.4787375567
1.96,996708.4810681379
1.97,996822.7686782565
1.98,996842.1240993465
1.99,996891.520013232
2,996969.0023867958
2.01,996987.6728635555
2.02,997063.7118762062
2.03,997190.4058790404
2.04,996897.9889846176
2.05,997169.0045443581
2.06,997414.3427794949
2.07,997531.070059694
2.08,997547.3269664496
2.09,997625.750158413
2.1,997646.3253596419
2.11,997822.5478739935
2.12,997841.4000183151
2.13,997907.3649826208
2.14,997946.7190803481
2.15,998017.4549644971
2.16,998182.9751673375
2.17,998241.8929815317
2.18,998320.4694399275
2.19,998369.3277645017
2.2,998393.4831503911
2.21,998433.6638528215
2.22,998500.8792742392
2.23,998546.7165581315
2.24,998617.60171978
2.25,998664.3647649827
2.26,998690.4361575065
2.27,998714.6210440391
2.28,998738.108659227
2.29,998808.9372611662
2.3,998844.0577760411
2.31,998868.4649337564
2.32,998905.5573536416
2.33,998929.7932189036
2.34,998957.3953700091
2.35,998974.1358534178
2.36,999009.4812077163
2.37,999042.8492232041
2.38,999050.3942611053
2.39,999102.8317306797
2.4,999126.3325392638
2.41,999154.8146950693
2.42,999196.4442647292
2.43,999217.6338080073
2.44,999238.5346886644
2.45,999264.7705506423
2.46,999311.2736174717
2.47,999317.9818744842
2.48,999352.7131950335
2.49,999352.7826157444
2.5,999369.7405391203
2.51,999364.8947554633
2.52,999387.8491731677
2.53,999390.5298431922
2.54,999406.5729800725
2.55,999430.4481743046
2.56,999453.6680100712
2.57,999489.3625112718
2.58,999503.283428809
2.59,999533.2166326126
2.6,999536.5932792968
2.61,999544.391854001
2.62,999547.8643068257
2.63,999558.3889600219
2.64,999562.4469273145
2.65,999592.9415179811
2.66,999603.5217986066
2.67,999631.5586603411
2.68,999646.4792166613
2.69,999657.8014550469
2.7,999667.6138915869
2.71,999683.3581578593
2.72,999700.6549132379
2.73,999710.8650988854
2.74,999708.341611134
2.75,999720.7166123267
2.76,999739.1775705719
2.77,999754.465008596
2.78,999743.8398301119
2.79,999758.9412120068
2.8,999788.1428784814
2.81,999813.3944197155
2.82,999819.3159825463
2.83,999823.3233104828
2.84,999834.5632860092
2.85,999822.5807100355
2.86,999828.902953595
2.87,999841.2709906497
2.88,999850.8856702995
2.89,999885.0349398676
2.9,999887.4464952878
2.91,999887.9906080201
2.92,999892.4702950558
2.93,999897.4251975714
2.94,999891.5984997358
2.95,999902.4925678337
2.96,999902.5566983217
2.97,999907.862614247
2.98,999890.8210395769
2.99,999881.4717582868
3,999883.8971898853
3.01,999878.1346937761
3.02,999880.7205211488
3.03,999890.0802323543
3.04,999886.8904059067
3.05,999890.6059036647
3.06,999895.5295417181
3.07,999900.0011732933
3.08,999899.818267015
3.09,999906.7793241161
3.1,999906.1551757519
3.11,999903.3444368631
3.12,999899.3763034913
3.13,999905.2034154405
3.14,999911.8606242823
3.15,999913.3414856631
3.16,999912.0325773405
3.17,999911.5795058574
3.18,999914.1975912059
3.19,999909.6830189559
3.2,999910.4734630489
3.21,999912.0121114751
3.22,999912.522342575
3.23,999914.1238436846
3.24,999915.1241857014
3.25,999922.8581265111
3.26,999940.7802386136
3.27,999954.0237322485
3.28,999956.5738986948
3.29,999957.350558796
3.3,999959.6395321878
3.31,999962.3737715745
3.32,999971.188399307
3.33,999974.1501883639
3.34,999977.1457832963
3.35,999974.1201601684
3.36,999977.2645133199
3.37,999976.3310265394
3.38,999987.9309625537
3.39,999989.089328478
3.4,999991.3241463772
3.41,999990.4395586586
3.42,999990.5602485492
3.43,999991.1837339926
3.44,999933.5952681305
3.45,999934.0726336716
3.46,999987.7338357987
3.47,1000005.747113232
3.48,1000018.510368455
3.49,1000014.660319733
3.5,1000008.926764198
3.51,1000000.075098542
3.52,999986.0428667162
3.53,1000000.454762752
3.54,1000018.314056877
3.55,1000034.261154682
3.56,1000043.794495293
3.57,1000041.220310978
3.58,1000040.882278921
3.59,1000038.952476898
3.6,1000044.135107653
3.61,1000038.446465071
3.62,1000038.317979396
3.63,1000044.384250753
3.64,1000044.054576741
3.65,1000040.546106823
3.66,1000037.043699236
3.67,1000026.623693317
3.68,1000030.117680978
3.69,1000052.763276728
3.7,1000062.208683765
3.71,1000071.980188997
3.72,1000072.499914342
3.73,1000072.385308069
3.74,1000072.980598105
3.75,1000072.011280832
3.76,1000069.316305554
3.77,1000073.904926175
3.78,1000081.689665688
3.79,1000080.936969178
3.8,1000080.874986806
3.81,1000073.202904156
3.82,1000074.142405135
3.83,1000070.988662766
3.84,1000071.97706316
3.850000000000001,1000072.027076075
3.86,1000070.931918381
3.87,1000070.478983919
3.88,1000072.923764838
3.89,1000083.657473856
3.9,1000078.702972748
3.91,1000079.582583026
3.92,1000078.661957998
3.930000000000001,1000077.994727575
3.94,1000076.964912099
3.95,1000070.612674937
3.96,1000068.414531511
3.97,1000073.384255066
3.98,1000069.866553844
3.99,1000059.701310948
4,1000069.668243142
4.01,1000070.509553234
4.02,1000072.603168844
4.03,1000068.737390203
4.04,1000075.898275044
4.05,1000030.235841833
4.06,1000034.281022915
4.07,1000055.162371475
4.08,1000055.207525678
4.09,1000059.158529102
4.1,1000056.436826356
4.11,1000054.102793626
4.12,1000053.414385015
4.13,1000083.423728424
4.140000000000001,1000081.756706954
4.15,1000086.970892579
4.16,1000081.058115377
4.17,1000081.770551658
4.18,1000081.843328537
4.19,1000074.365992845
4.2,1000076.712744426
4.21,1000076.624910352
4.220000000000001,1000074.495075546
4.23,1000054.637459093
4.24,1000046.488940678
4.25,1000044.33525514
4.26,1000042.411673113
4.27,1000035.014475981
4.279999999999999,1000041.815525203
4.29,1000039.819904209
4.300000000000001,1000040.390339412
4.31,1000038.050402171
4.32,1000034.28331744
4.33,1000034.851877941
4.34,1000033.762050507
4.35,1000042.885066482
4.359999999999999,1000033.181682755
4.37,1000032.522038721
4.380000000000001,1000034.956308933
4.390000000000001,1000035.397109899
4.4,1000033.263208952
4.41,1000034.992074791
4.42,1000033.004772583
4.43,1000048.773982541
4.44,1000046.911563544
4.45,1000046.041304494
4.460000000000001,1000051.212015084
4.470000000000001,1000052.852062166
4.48,1000049.598974953
4.49,1000043.329157406
4.5,1000043.804179441
4.51,1000043.051468601
4.52,1000043.994873544
4.53,1000047.635411055
4.54,1000048.546871261
4.550000000000001,1000051.413029558
4.56,1000047.056495205
4.57,1000044.546762014
4.58,1000048.093622498
4.59,1000046.811241248
4.6,1000046.65590773
4.61,1000050.985982987
4.62,1000050.071804354
4.63,1000049.379705474
4.640000000000001,1000050.721241553
4.65,1000053.16455126
4.66,1000053.66550697
4.67,1000049.198652963
4.68,1000040.589853638
4.69,1000038.770224609
4.7,1000042.692302704
4.71,1000045.317838341
4.72,1000041.256352428
4.73,1000038.870761908
4.74,1000037.716656091
4.75,1000032.610220666
4.76,1000032.381200474
4.77,1000032.085402023
4.78,1000032.536406397
4.79,1000032.332062172
4.8,1000033.657416539
4.81,1000035.455744689
4.82,1000035.726055157
4.83,1000035.031236207
4.84,1000035.853940837
4.850000000000001,1000037.640937787
4.86,1000039.00139525
4.87,1000037.95854723
4.88,1000039.47927852
4.89,1000023.868593814
4.9,1000029.808748748
4.91,1000031.207435929
4.92,1000031.613165481
4.930000000000001,1000001.077429628
4.94,1000002.630052413
4.95,1000002.468425194
4.96,1000002.885708168
4.97,1000002.073513376
4.98,999994.3970263845
4.99,999993.2938340724
5,999996.3212282215
5.010000000000001,1000002.296418687
5.02,999854.7856430719
5.03,1000019.95510606
5.04,1000027.904724666
5.05,1000034.124153267
5.06,1000041.550432607
5.069999999999999,1000035.058830748
5.08,1000035.084849569
5.090000000000001,999994.0347160976
5.100000000000001,999993.6710263104
5.11,1000021.89516976
5.12,1000060.850804706
5.13,1000077.256205547
5.14,1000078.362665708
5.149999999999999,1000078.626428003
5.16,1000078.013718671
5.170000000000001,1000074.79321113
5.180000000000001,1000073.650628658
5.19,1000030.194699916
5.2,1000042.178260293
5.21,1000042.668580141
5.22,1000074.802721824
5.23,1000072.695000745
5.24,1000071.599148552
5.25,1000071.928796514
5.260000000000001,1000070.567029086
5.27,1000072.699561904
5.28,1000071.291468465
5.29,1000075.68766754
5.3,1000069.406436198
5.31,1000067.751607834
5.32,1000070.273376896
5.33,1000068.762317763
5.34,1000067.182333249
5.350000000000001,1000063.577212326
5.36,1000063.660266794
5.37,1000062.51374584
5.38,1000067.325298017
5.39,1000063.714169409
5.4,1000057.281009339
5.41,1000055.961033823
5.42,1000056.844793895
5.430000000000001,1000056.84352763
5.44,1000053.75269425
5.45,1000054.686150151
5.46,1000051.613213559
5.47,1000050.29160325
5.48,1000048.785044921
5.49,1000050.696055317
5.5,1000049.389710329
5.51,1000051.302161066
5.52,1000047.430314103
5.53,1000045.557581679
5.54,1000049.998411809
5.55,1000051.628624429
5.56,1000050.874825909
5.57,1000049.916999771
5.58,1000048.516025777
5.59,1000044.916227988
5.6,1000044.354757569
5.61,1000046.184777668
5.62,1000045.134762491
5.63,1000044.043558327
5.640000000000001,1000039.984614661
5.65,1000037.583085058
5.66,1000038.012365359
5.67,1000036.359284534
5.68,1000036.392011136
5.69,1000035.804623227
5.7,1000031.967123313
5.71,1000031.845367321
5.720000000000001,1000032.165374743
5.73,1000034.470668345
5.74,1000034.280250857
5.75,1000037.909943468
5.76,1000047.796965794
5.77,1000047.607115723
5.779999999999999,1000047.756009141
5.79,1000049.77685198
5.800000000000001,1000047.014511489
5.81,1000053.07261867
5.82,1000056.868192465
5.83,1000079.234674736
5.84,1000081.805210423
5.85,1000087.406416356
5.859999999999999,1000080.322627163
5.87,1000078.001444213
5.880000000000001,1000074.728475673
5.890000000000001,1000075.132182184
5.9,1000073.409349698
5.91,1000070.022657086
5.92,1000067.194548465
5.93,1000070.150926849
5.94,1000068.976076464
5.95,1000067.678105747
5.960000000000001,1000066.321544435
5.970000000000001,1000064.9421855
5.98,1000063.561434267
5.99,1000063.714909026
6,1000061.013920268
6.01,1000062.83506302
6.02,1000066.484039146
6.03,1000072.073731163
6.04,1000074.045710685
6.050000000000001,1000072.126429691
6.06,1000073.984041621
6.07,1000072.81212129
6.08,1000065.858798603
6.09,1000054.483316989
6.1,1000053.343921221
6.11,1000046.397896513
6.12,1000044.599030302
6.13,1000044.041218093
6.140000000000001,1000043.233253003
6.15,1000042.32761751
6.16,1000041.361777175
6.17,1000039.50181356
6.18,1000037.615437198
6.19,1000041.951538498
6.2,1000044.721184457
6.21,1000043.593004835
6.22,1000044.403891925
6.23,1000046.369965818
6.24,1000044.655379154
6.25,1000043.932560249
6.26,1000042.517463022
6.27,1000046.080752189
6.28,1000045.635061247
6.29,1000043.046917832
6.3,1000045.318694719
6.31,1000053.797962892
6.32,1000049.577663678
6.33,1000049.179229351
6.34,1000049.030454482
6.350000000000001,1000048.332049242
6.36,1000050.694508012
6.37,1000047.757826358
6.38,1000047.018292585
6.39,1000046.247445428
6.399999999999999,1000045.397069848
6.41,1000045.042645397
6.42,1000044.299728739
6.430000000000001,1000043.374018109
6.44,1000042.358487356
6.45,1000040.710381668
6.46,1000039.758893927
6.47,1000035.977963823
6.48,1000032.765854572
6.49,1000031.632751865
6.500000000000001,1000030.723526937
6.510000000000001,1000033.24638046
6.52,1000033.864971157
6.53,1000032.936573147
6.54,1000030.535665974
6.55,1000029.860036009
6.56,1000031.19133149
6.569999999999999,1000032.983128769
6.580000000000001,1000032.73875628
6.590000000000001,1000032.521767701
6.600000000000001,1000032.289017427
6.61,1000032.023996231
6.62,1000031.722821516
6.63,1000031.387354698
6.64,1000032.759789872
6.649999999999999,1000032.93528012
6.66,1000032.573369948
6.670000000000001,1000032.136804318
6.680000000000001,1000031.657574575
6.69,1000031.87409647
6.7,1000028.018758489
6.71,1000027.907518174
6.72,1000027.781186245
6.73,1000027.613327768
6.74,1000024.355615946
6.75,1000023.988112742
6.760000000000001,1000023.63916895
6.77,1000023.297998109
6.78,1000020.997468015
6.79,1000020.683384404
6.8,1000017.559227489
6.81,1000017.33193453
6.82,1000016.925336559
6.83,1000016.638015004
6.84,1000013.939132631
6.850000000000001,1000013.593193378
6.86,1000013.229172117
6.87,1000014.301779274
6.88,1000014.468070193
6.89,1000006.260016751
6.9,1000013.869675717
6.91,1000016.946292724
6.92,1000016.783697836
6.930000000000001,1000018.141705337
6.94,1000017.892364445
6.95,1000017.610805071
6.96,1000017.302624033
6.97,1000016.973736613
6.98,1000016.629955343
6.99,1000016.276554429
7,1000015.918029953
7.01,1000015.558039893
7.02,1000015.199455188
7.03,1000014.844462469
7.04,1000017.746187152
7.05,1000014.377987546
7.06,1000014.003789719
7.07,1000013.625302631
7.08,1000013.249540471
7.09,1000012.881364533
7.1,1000012.523464664
7.11,1000012.177051178
7.12,1000011.842479691
7.130000000000001,1000011.51965716
7.140000000000001,1000011.208272254
7.15,1000010.907916686
7.16,1000010.61814592
7.17,1000010.338508657
7.18,1000010.068560412
7.19,1000009.807869972
7.2,1000009.556021951
7.210000000000001,1000009.312618002
7.220000000000001,1000009.077277288
7.23,1000008.849636236
7.24,1000008.629348605
7.25,1000008.416085122
7.26,1000008.20953309
7.27,1000008.00939593
7.279999999999999,1000007.815392665
7.290000000000001,1000007.627257278
7.300000000000001,1000007.444738157
7.31,1000007.26759751
7.32,1000007.095610512
7.33,1000006.928564885
7.34,1000006.766259991
7.35,1000006.608506381
7.359999999999999,1000006.455124856
7.37,1000006.305946356
7.380000000000001,1000006.160810777
7.390000000000001,1000006.019566748
7.4,1000005.882071016
7.41,1000005.748188002
7.42,1000005.617789034
7.43,1000005.490752339
7.44,1000005.366962205
7.45,1000005.246308701
7.460000000000001,1000005.128687531
7.470000000000001,1000005.01399928
7.48,1000004.902149394
7.49,1000004.793047876
7.5,1000004.686608724
7.51,1000004.582749979
7.52,1000004.481393279
7.53,1000004.382463759
7.54,1000004.285889713
7.550000000000001,1000004.19160261
7.56,1000004.099536656
7.57,1000004.009628736
7.58,1000003.921818365
7.59,1000003.836047364
7.6,1000003.752259764
7.61,1000003.67040186
7.62,1000003.590421832
7.63,1000003.512269772
7.64,1000003.435897599
7.649999999999999,1000003.361258903
7.659999999999999,1000003.288308928
7.669999999999999,1000003.217004526
7.680000000000001,1000003.147303691
7.690000000000001,1000003.079166188
7.700000000000001,1000003.012552871
7.710000000000001,1000002.94742594
7.720000000000001,1000002.883748741
7.73,1000002.821485756
7.74,1000002.760602596
7.75,1000002.701065963
7.760000000000001,1000002.642843372
7.77,1000002.585903561
7.78,1000002.530215848
7.79,1000002.475750843
7.8,1000002.422479599
7.81,1000002.370374261
7.819999999999999,1000002.319407647
7.829999999999999,1000002.269553212
7.84,1000002.220785343
7.85,1000002.17307903
7.860000000000001,1000002.126409912
7.870000000000001,1000002.080754147
7.880000000000001,1000002.036088874
7.890000000000001,1000001.992391416
7.9,1000001.949639967
7.91,1000001.907813202
7.920000000000001,1000001.866890207
7.930000000000001,1000001.826850828
7.94,1000001.787675258
7.95,1000001.749344204
7.96,1000001.711838791
7.97,1000001.675140825
7.98,1000001.639232328
7.989999999999999,1000001.604095807
8,1000001.569714288
8.01,1000001.536071107
8.02,1000001.503150032
8.029999999999999,1000001.470935245
8.040000000000001,1000001.439411217
8.050000000000001,1000001.408562882
8.06,1000001.378375457
8.07,1000001.348834526
8.08,1000001.319926035
8.09,1000001.291636162
8.1,1000001.263951507
8.109999999999999,1000001.236859018
8.120000000000001,1000001.210345751
8.130000000000001,1000001.184399231
8.140000000000001,1000001.159007259
8.15,1000001.134157716
8.16,1000001.109839011
